time (s),T1 (K),P1 (Bar),V1 (m3)
0.0004,1000.9999833051509,101324.99831049965,1.0
0.0008,1000.9999683239054,101324.99679530668,1.0
0.0012000000000000001,1000.999954988936,101324.9954477704,1.0
0.0016,1000.9999434492506,101324.99428313038,1.0
0.002,1000.9999338318769,101324.99331439308,1.0
0.0024000000000000002,1000.9999261369151,101324.99254170884,1.0
0.0028000000000000004,1000.9999203673206,101324.99196550893,1.0
0.0032000000000000006,1000.9999167189634,101324.99160574474,1.0
0.0036000000000000008,1000.9999152910581,101324.99147257522,1.0
0.004000000000000001,1000.999916021567,101324.99155982825,1.0
0.004400000000000001,1000.9999191310108,101324.99188992538,1.0
0.004800000000000001,1000.9999247393595,101324.99247510133,1.0
0.0052000000000000015,1000.9999329236795,101324.993323239,1.0
0.005600000000000002,1000.999943630663,101324.99442901519,1.0
0.006000000000000002,1000.9999571999728,101324.99582687594,1.0
0.006400000000000002,1000.9999737329529,101324.99752713369,1.0
0.006800000000000002,1000.9999932390048,101324.99953078433,1.0
0.007200000000000002,1001.0000158233033,101325.00184850821,1.0
0.007600000000000003,1001.0000416409989,101325.00449603412,1.0
0.008000000000000002,1001.0000708278119,101325.00748711318,1.0
0.008400000000000001,1001.0001035339556,101325.01083695273,1.0
0.0088,1001.0001398580599,101325.01455552717,1.0
0.0092,1001.0001799037084,101325.01865330078,1.0
0.0096,1001.0002237962818,101325.02314293262,1.0
0.009999999999999998,1001.0002716731151,101325.02803827947,1.0
0.010399999999999998,1001.0003236674809,101325.0333527749,1.0
0.010799999999999997,1001.0003799116473,101325.03909973832,1.0
0.011199999999999996,1001.0004405330992,101325.0452919924,1.0
0.011599999999999996,1001.0005056683274,101325.05194325876,1.0
0.011999999999999995,1001.0005754357061,101325.0590654126,1.0
0.012399999999999994,1001.0006499680366,101325.06667177669,1.0
0.012799999999999994,1001.0007293934731,101325.07477519105,1.0
0.013199999999999993,1001.0008138410618,101325.0833885733,1.0
0.013599999999999992,1001.0009034404691,101325.09252489182,1.0
0.013999999999999992,1001.000998319709,101325.10219693567,1.0
0.014399999999999991,1001.0010986026409,101325.11241706175,1.0
0.01479999999999999,1001.0012044101898,101325.12319731884,1.0
0.01519999999999999,1001.0013158589508,101325.13454930653,1.0
0.015599999999999989,1001.0014330629936,101325.14648435879,1.0
0.01599999999999999,1001.0015561326876,101325.15901342564,1.0
0.01639999999999999,1001.0016851748642,101325.17214708992,1.0
0.016799999999999992,1001.0018202919647,101325.18589548238,1.0
0.017199999999999993,1001.001961581841,101325.20026826186,1.0
0.017599999999999994,1001.0021091368316,101325.215274523,1.0
0.017999999999999995,1001.0022630437512,101325.23092279611,1.0
0.018399999999999996,1001.0024233834031,101325.24722099856,1.0
0.018799999999999997,1001.0025902306571,101325.26417644406,1.0
0.0192,1001.0027636540599,101325.28179580419,1.0
0.0196,1001.0029437156032,101325.30008508601,1.0
0.02,1001.0031304704859,101325.3190496091,1.0
0.0204,1001.0033239668868,101325.33869398382,1.0
0.020800000000000003,1001.0035242457063,101325.35902208628,1.0
0.021200000000000004,1001.0037313405331,101325.38003705592,1.0
0.021600000000000005,1001.003945277432,101325.40174127545,1.0
0.022000000000000006,1001.0041660749987,101325.42413637713,1.0
0.022400000000000007,1001.0043937443048,101325.44722323856,1.0
0.022800000000000008,1001.0046282888127,101325.4710019749,1.0
0.02320000000000001,1001.004869704507,101325.49547195315,1.0
0.02360000000000001,1001.005117979889,101325.52063179236,1.0
0.02400000000000001,1001.0053730960399,101325.54647937103,1.0
0.024400000000000012,1001.0056350268435,101325.57301185027,1.0
0.024800000000000013,1001.0059037390348,101325.60022567931,1.0
0.025200000000000014,1001.0061791924632,101325.62811662287,1.0
0.025600000000000015,1001.0064613403035,101325.6566797828,1.0
0.026000000000000016,1001.0067501292206,101325.68590961536,1.0
0.026400000000000017,1001.0070454997274,101325.71579996761,1.0
0.026800000000000018,1001.0073473864172,101325.7463441013,1.0
0.02720000000000002,1001.0076557182402,101325.7775347207,1.0
0.02760000000000002,1001.0079704188912,101325.80936401214,1.0
0.02800000000000002,1001.0082914070712,101325.84182367043,1.0
0.028400000000000022,1001.0086185968705,101325.87490493747,1.0
0.028800000000000023,1001.0089518981187,101325.90859863746,1.0
0.029200000000000025,1001.0092912167121,101325.94289520985,1.0
0.029600000000000026,1001.0096364550094,101325.97778474909,1.0
0.030000000000000027,1001.0099875121748,101326.01325703882,1.0
0.030400000000000028,1001.0103442845383,101326.04930158822,1.0
0.03080000000000003,1001.0107066659615,101326.0859076682,1.0
0.03120000000000003,1001.0110745481842,101326.12306434622,1.0
0.03160000000000003,1001.0114478211774,101326.16076052142,1.0
0.03200000000000003,1001.0118263734654,101326.19898495656,1.0
0.032400000000000026,1001.0122100924781,101326.23772631324,1.0
0.032800000000000024,1001.0125988648441,101326.27697318075,1.0
0.03320000000000002,1001.012992576693,101326.31671410616,1.0
0.03360000000000002,1001.0133911139803,101326.35693762674,1.0
0.034000000000000016,1001.0137943627118,101326.39763229164,1.0
0.034400000000000014,1001.0142022092409,101326.43878669177,1.0
0.03480000000000001,1001.0146145405121,101326.4803894835,1.0
0.03520000000000001,1001.0150312442586,101326.52242940835,1.0
0.03560000000000001,1001.0154522092664,101326.56489531888,1.0
0.036000000000000004,1001.015877325531,101326.60777619404,1.0
0.0364,1001.0163064844431,101326.65106115754,1.0
0.0368,1001.016739578997,101326.69473949821,1.0
0.0372,1001.0171765038776,101326.73880067847,1.0
0.037599999999999995,1001.0176171556408,101326.78323435203,1.0
0.03799999999999999,1001.018061432834,101326.82803037549,1.0
0.03839999999999999,1001.0185092360667,101326.87317881528,1.0
0.03879999999999999,1001.0189604681539,101326.9186699617,1.0
0.039199999999999985,1001.0194150341572,101326.96449433245,1.0
0.03959999999999998,1001.0198728414574,101327.0106426801,1.0
0.03999999999999998,1001.0203337998439,101327.05710600039,1.0
0.04039999999999998,1001.0207978215119,101327.1038755317,1.0
0.040799999999999975,1001.0212648211243,101327.1509427613,1.0
0.04119999999999997,1001.0217347158427,101327.19829942806,1.0
0.04159999999999997,1001.0222074253126,101327.24593752055,1.0
0.04199999999999997,1001.022682871704,101327.29384928137,1.0
0.042399999999999965,1001.0231609796891,101327.34202720417,1.0
0.04279999999999996,1001.0236416764318,101327.39046403293,1.0
0.04319999999999996,1001.0241248915968,101327.43915276241,1.0
0.04359999999999996,1001.0246105573012,101327.4880866334,1.0
0.043999999999999956,1001.0250986080991,101327.53725913062,1.0
0.04439999999999995,1001.0255889809607,101327.58666398106,1.0
0.04479999999999995,1001.0260816152158,101327.63629514776,1.0
0.04519999999999995,1001.0265764525334,101327.68614682787,1.0
0.045599999999999946,1001.0270734368697,101327.7362134474,1.0
0.045999999999999944,1001.0275725144213,101327.78648965631,1.0
0.04639999999999994,1001.0280736335847,101327.83697032438,1.0
0.04679999999999994,1001.0285767448983,101327.88765053556,1.0
0.047199999999999936,1001.0290818009906,101327.93852558243,1.0
0.047599999999999934,1001.0295887565372,101327.98959096207,1.0
0.04799999999999993,1001.0300975681901,101328.04084236873,1.0
0.04839999999999993,1001.0306081945341,101328.09227568975,1.0
0.04879999999999993,1001.0311205960277,101328.14388699921,1.0
0.049199999999999924,1001.0316347349415,101328.19567255213,1.0
0.04959999999999992,1001.0321505753132,101328.2476287795,1.0
0.04999999999999992,1001.0326680828772,101328.29975228176,1.0
0.05039999999999992,1001.0331872250192,101328.35203982364,1.0
0.050799999999999915,1001.0337079707194,101328.40448832898,1.0
0.05119999999999991,1001.0342302904853,101328.45709487375,1.0
0.05159999999999991,1001.0347541563126,101328.50985668208,1.0
0.05199999999999991,1001.0352795416238,101328.5627711203,1.0
0.052399999999999905,1001.0358064212065,101328.61583569058,1.0
0.0527999999999999,1001.0363347711789,101328.66904802766,1.0
0.0531999999999999,1001.0368645689285,101328.72240589255,1.0
0.0535999999999999,1001.0373957930549,101328.77590716697,1.0
0.053999999999999895,1001.0379284233512,101328.82954985127,1.0
0.05439999999999989,1001.0384624407088,101328.88333205522,1.0
0.05479999999999989,1001.0389978271209,101328.93725199808,1.0
0.05519999999999989,1001.0395345656017,101328.99130800075,1.0
0.055599999999999886,1001.0400726401537,101329.0454984823,1.0
0.05599999999999988,1001.0406120357397,101329.09982195744,1.0
0.05639999999999988,1001.0411527382048,101329.15427702834,1.0
0.05679999999999988,1001.0416947342908,101329.20886238657,1.0
0.057199999999999876,1001.0422380115332,101329.26357680245,1.0
0.057599999999999874,1001.0427825582773,101329.31841912682,1.0
0.05799999999999987,1001.0433283636199,101329.37338828505,1.0
0.05839999999999987,1001.0438754173606,101329.4284832725,1.0
0.058799999999999866,1001.0444237100096,101329.48370315507,1.0
0.059199999999999864,1001.0449732327003,101329.53904706053,1.0
0.05959999999999986,1001.0455239772139,101329.59451418095,1.0
0.05999999999999986,1001.0460759359017,101329.65010376509,1.0
0.06039999999999986,1001.0466291016835,101329.70581511807,1.0
0.060799999999999854,1001.0471834680233,101329.76164759908,1.0
0.06119999999999985,1001.0477390288694,101329.81760061535,1.0
0.06159999999999985,1001.0482957786829,101329.87367362503,1.0
0.06199999999999985,1001.04885371235,101329.92986612832,1.0
0.062399999999999844,1001.0494128252119,101329.98617767084,1.0
0.06279999999999984,1001.0499731130163,101330.04260783823,1.0
0.06319999999999984,1001.0505345718894,101330.09915625383,1.0
0.06359999999999984,1001.0510971983482,101330.15582257972,1.0
0.06399999999999983,1001.0516609892319,101330.21260650993,1.0
0.06439999999999983,1001.0522259417367,101330.2695077739,1.0
0.06479999999999983,1001.0527920533501,101330.32652612981,1.0
0.06519999999999983,1001.0533593218621,101330.38366136604,1.0
0.06559999999999983,1001.0539277453483,101330.44091329907,1.0
0.06599999999999982,1001.0544973221313,101330.49828177,1.0
0.06639999999999982,1001.0550680508021,101330.55576664647,1.0
0.06679999999999982,1001.0556399301653,101330.61336781722,1.0
0.06719999999999982,1001.0562129592589,101330.67108519426,1.0
0.06759999999999981,1001.056787137325,101330.72891870965,1.0
0.06799999999999981,1001.0573624637955,101330.78686831427,1.0
0.06839999999999981,1001.0579389382964,101330.84493397828,1.0
0.0687999999999998,1001.0585165606122,101330.90311568748,1.0
0.0691999999999998,1001.0590953307061,101330.96141344542,1.0
0.0695999999999998,1001.0596752486787,101331.01982726915,1.0
0.0699999999999998,1001.0602563147783,101331.07835719033,1.0
0.0703999999999998,1001.0608385293906,101331.13700325436,1.0
0.0707999999999998,1001.0614218930181,101331.195765518,1.0
0.07119999999999979,1001.0620064062892,101331.2546440506,1.0
0.07159999999999979,1001.0625920699346,101331.31363893152,1.0
0.07199999999999979,1001.0631788847912,101331.37275025067,1.0
0.07239999999999978,1001.0637668517905,101331.43197810731,1.0
0.07279999999999978,1001.0643559719506,101331.49132260922,1.0
0.07319999999999978,1001.0649462463771,101331.55078387288,1.0
0.07359999999999978,1001.0655376762456,101331.61036202163,1.0
0.07399999999999977,1001.0661302628141,101331.67005718693,1.0
0.07439999999999977,1001.0667240073965,101331.72986950583,1.0
0.07479999999999977,1001.067318911374,101331.789799122,1.0
0.07519999999999977,1001.0679149761859,101331.84984618476,1.0
0.07559999999999976,1001.0685122033237,101331.91001084872,1.0
0.07599999999999976,1001.0691105943304,101331.97029327339,1.0
0.07639999999999976,1001.0697101507934,101332.03069362289,1.0
0.07679999999999976,1001.0703108743297,101332.09121206401,1.0
0.07719999999999975,1001.0709127666177,101332.15184876975,1.0
0.07759999999999975,1001.0715158293634,101332.21260391576,1.0
0.07799999999999975,1001.0721200642871,101332.27347767919,1.0
0.07839999999999975,1001.0727254731343,101332.33447023947,1.0
0.07879999999999975,1001.0733320577425,101332.39558178539,1.0
0.07919999999999974,1001.0739398199031,101332.45681250085,1.0
0.07959999999999974,1001.0745487614428,101332.51816257351,1.0
0.07999999999999974,1001.075158884223,101332.57963219432,1.0
0.08039999999999974,1001.0757701901448,101332.64122155815,1.0
0.08079999999999973,1001.076382681092,101332.70293085811,1.0
0.08119999999999973,1001.0769963589678,101332.76476028934,1.0
0.08159999999999973,1001.077611225712,101332.8267100505,1.0
0.08199999999999973,1001.0782272832677,101332.88878034054,1.0
0.08239999999999972,1001.078844533579,101332.95097135859,1.0
0.08279999999999972,1001.079462978609,101333.01328330558,1.0
0.08319999999999972,1001.0800826203329,101333.07571638371,1.0
0.08359999999999972,1001.0807034607326,101333.13827079575,1.0
0.08399999999999971,1001.0813255017888,101333.20094674434,1.0
0.08439999999999971,1001.0819487454972,101333.26374443373,1.0
0.08479999999999971,1001.0825731938628,101333.32666406888,1.0
0.0851999999999997,1001.083198848883,101333.38970585419,1.0
0.0855999999999997,1001.0838257125622,101333.45286999461,1.0
0.0859999999999997,1001.0844537869219,101333.5161566969,1.0
0.0863999999999997,1001.085083073975,101333.57956616687,1.0
0.0867999999999997,1001.0857135757352,101333.64309861044,1.0
0.0871999999999997,1001.0863452942212,101333.70675423401,1.0
0.08759999999999969,1001.086978231466,101333.77053324542,1.0
0.08799999999999969,1001.0876123894882,101333.83443585114,1.0
0.08839999999999969,1001.0882477703117,101333.89846225805,1.0
0.08879999999999968,1001.0888843759699,101333.96261267403,1.0
0.08919999999999968,1001.0895222084874,101334.02688730603,1.0
0.08959999999999968,1001.0901612698966,101334.09128636195,1.0
0.08999999999999968,1001.090801562226,101334.15581004915,1.0
0.09039999999999968,1001.0914430875113,101334.22045857568,1.0
0.09079999999999967,1001.0920858477829,101334.28523214928,1.0
0.09119999999999967,1001.0927298450707,101334.3501309774,1.0
0.09159999999999967,1001.0933750814123,101334.4151552684,1.0
0.09199999999999967,1001.0940215588355,101334.48030522962,1.0
0.09239999999999966,1001.0946692793792,101334.5455810696,1.0
0.09279999999999966,1001.0953182450753,101334.610982996,1.0
0.09319999999999966,1001.095968457962,101334.67651121737,1.0
0.09359999999999966,1001.0966199200694,101334.74216594126,1.0
0.09399999999999965,1001.0972726334378,101334.80794737638,1.0
0.09439999999999965,1001.0979266001046,101334.87385573103,1.0
0.09479999999999965,1001.0985818221004,101334.93989121291,1.0
0.09519999999999965,1001.0992383014724,101335.00605403147,1.0
0.09559999999999964,1001.0998960402546,101335.0723443947,1.0
0.09599999999999964,1001.1005550404897,101335.13876251157,1.0
0.09639999999999964,1001.1012153042197,101335.20530859094,1.0
0.09679999999999964,1001.1018768334865,101335.2719828417,1.0
0.09719999999999963,1001.102539630333,101335.33878547282,1.0
0.09759999999999963,1001.1032036968037,101335.40571669354,1.0
0.09799999999999963,1001.1038690349435,101335.47277671304,1.0
0.09839999999999963,1001.1045356468155,101335.53996574234,1.0
0.09879999999999962,1001.1052035344476,101335.607283989,1.0
0.09919999999999962,1001.1058726999083,101335.67473166464,1.0
0.09959999999999962,1001.1065431452447,101335.74230897882,1.0
0.09999999999999962,1001.1072148725101,101335.81001614158,1.0
0.10039999999999961,1001.1078878837653,101335.87785336383,1.0
0.10079999999999961,1001.1085621810787,101335.94582085725,1.0
0.10119999999999961,1001.1092377665071,101336.01391883234,1.0
0.10159999999999961,1001.1099146421159,101336.08214750043,1.0
0.1019999999999996,1001.1105928099722,101336.15050707321,1.0
0.1023999999999996,1001.1112722721467,101336.21899776257,1.0
0.1027999999999996,1001.1119530307212,101336.28761978155,1.0
0.1031999999999996,1001.1126350877728,101336.35637334279,1.0
0.1035999999999996,1001.1133184453798,101336.42525865904,1.0
0.10399999999999959,1001.1140031056291,101336.4942759439,1.0
0.10439999999999959,1001.1146890706085,101336.56342541116,1.0
0.10479999999999959,1001.1153763424101,101336.63270727493,1.0
0.10519999999999959,1001.1160649231276,101336.70212174958,1.0
0.10559999999999958,1001.1167548148607,101336.77166905008,1.0
0.10599999999999958,1001.1174460197135,101336.84134939179,1.0
0.10639999999999958,1001.1181385397944,101336.91116299063,1.0
0.10679999999999958,1001.1188323772146,101336.98111006271,1.0
0.10719999999999957,1001.1195275340889,101337.05119082464,1.0
0.10759999999999957,1001.120224012536,101337.1214054933,1.0
0.10799999999999957,1001.1209218146821,101337.19175428635,1.0
0.10839999999999957,1001.1216209426553,101337.26223742176,1.0
0.10879999999999956,1001.1223213985897,101337.33285511805,1.0
0.10919999999999956,1001.1230231846243,101337.40360759417,1.0
0.10959999999999956,1001.1237263028949,101337.47449506889,1.0
0.10999999999999956,1001.1244307555527,101337.54551776251,1.0
0.11039999999999955,1001.1251365447496,101337.61667589536,1.0
0.11079999999999955,1001.125843672644,101337.68796968846,1.0
0.11119999999999955,1001.1265521413984,101337.75939936329,1.0
0.11159999999999955,1001.1272619531815,101337.83096514193,1.0
0.11199999999999954,1001.1279731101658,101337.90266724689,1.0
0.11239999999999954,1001.1286856145314,101337.97450590134,1.0
0.11279999999999954,1001.1293994684551,101338.04648132827,1.0
0.11319999999999954,1001.1301146741188,101338.11859375118,1.0
0.11359999999999953,1001.1308312337244,101338.19084339553,1.0
0.11399999999999953,1001.1315491494723,101338.26323048667,1.0
0.11439999999999953,1001.132268423569,101338.33575525055,1.0
0.11479999999999953,1001.1329890582261,101338.40841791374,1.0
0.11519999999999953,1001.1337110556617,101338.48121870335,1.0
0.11559999999999952,1001.1344344181005,101338.55415784728,1.0
0.11599999999999952,1001.1351591477728,101338.62723557393,1.0
0.11639999999999952,1001.1358852468859,101338.70045210939,1.0
0.11679999999999952,1001.1366127176937,101338.77380768445,1.0
0.11719999999999951,1001.1373415624456,101338.8473025296,1.0
0.11759999999999951,1001.1380717833925,101338.92093687525,1.0
0.11799999999999951,1001.1388033827953,101338.99471095302,1.0
0.1183999999999995,1001.139536362918,101339.06862499482,1.0
0.1187999999999995,1001.1402707260319,101339.14267923325,1.0
0.1191999999999995,1001.141006474415,101339.21687390168,1.0
0.1195999999999995,1001.141743610343,101339.29120923311,1.0
0.1199999999999995,1001.142482136085,101339.36568546006,1.0
0.1203999999999995,1001.1432220539526,101339.44030281929,1.0
0.12079999999999949,1001.1439633662449,101339.51506154618,1.0
0.12119999999999949,1001.1447060752703,101339.5899618773,1.0
0.12159999999999949,1001.1454501833414,101339.66500404944,1.0
0.12199999999999948,1001.146195692779,101339.74018830032,1.0
0.12239999999999948,1001.1469426059097,101339.81551486824,1.0
0.12279999999999948,1001.1476909250658,101339.89098399214,1.0
0.12319999999999948,1001.1484406525756,101339.96659591052,1.0
0.12359999999999947,1001.1491917907865,101340.04235086375,1.0
0.12399999999999947,1001.1499443420528,101340.118249093,1.0
0.12439999999999947,1001.1506983087324,101340.19429083985,1.0
0.12479999999999947,1001.1514536931896,101340.27047634634,1.0
0.12519999999999948,1001.1522104977972,101340.34680585565,1.0
0.1255999999999995,1001.152968724931,101340.42327961107,1.0
0.1259999999999995,1001.1537283769771,101340.49989785701,1.0
0.1263999999999995,1001.154489456324,101340.57666083812,1.0
0.12679999999999952,1001.1552519653596,101340.65356879907,1.0
0.12719999999999954,1001.1560159064944,101340.7306219867,1.0
0.12759999999999955,1001.1567812821385,101340.80782064791,1.0
0.12799999999999956,1001.15754809471,101340.88516503041,1.0
